Time	Lead II
0	0
0.01	0
0.02	0
0.03	0
0.04	0
0.05	0
0.06	0
0.07	0
0.08	0
0.09	0
0.1	0
0.11	0
0.12	0
0.13	0
0.14	0
0.15	0
0.16	0
0.17	0
0.18	0
0.19	0
0.2	0
0.21	0
0.22	0
0.23	0
0.24	0
0.25	0
0.26	0
0.27	0
0.28	0
0.29	0
0.3	0
0.31	0
0.32	0
0.33	0
0.34	0
0.35	0
0.36	0
0.37	0
0.38	0
0.39	0
0.4	0
0.41	0
0.42	0
0.43	0
0.44	0
0.45	0
0.46	0
0.47	0
0.48	0
0.49	0
0.5	0
0.51	0
0.52	0
0.53	0
0.54	0
0.55	0
0.56	0
0.57	0
0.58	0
0.59	0
0.6	0
0.61	0
0.62	0
0.63	0
0.64	0
0.65	0
0.66	0
0.67	0
0.68	0
0.69	0
0.7	0
0.71	0
0.72	0
0.73	0
0.74	0
0.75	0
0.76	0
0.77	0
0.78	0
0.79	0
0.8	0
0.81	0
0.82	0
0.83	0
0.84	0
0.85	0
0.86	0
0.87	0
0.88	0
0.89	0
0.9	0
0.91	0
0.92	0
0.93	0
0.94	0
0.95	0
0.96	0
0.97	0
0.98	0
0.99	0
1	0
1.01	0
1.02	0
1.03	0
1.04	0
1.05	0
1.06	0
1.07	0
1.08	0
1.09	0
1.1	0
1.11	0
1.12	0
1.13	0
1.14	0
1.15	0
1.16	0
1.17	0
1.18	0
1.19	0
1.2	0
1.21	0
1.22	0
1.23	0
1.24	0
1.25	0
1.26	0
1.27	0
1.28	0
1.29	0
1.3	0
1.31	0
1.32	0
1.33	0
1.34	0
1.35	0
1.36	0
1.37	0
1.38	0
1.39	0
1.4	0
1.41	0
1.42	0
1.43	0
1.44	0
1.45	0
1.46	0
1.47	0
1.48	0
1.49	0
1.5	0
1.51	0
1.52	0
1.53	0
1.54	0
1.55	0
1.56	0
1.57	0
1.58	0
1.59	0
1.6	0
1.61	0
1.62	0
1.63	0
1.64	0
1.65	0
1.66	0
1.67	0
1.68	0
1.69	0
1.7	0
1.71	0
1.72	0
1.73	0
1.74	0
1.75	0
1.76	0
1.77	0
1.78	0
1.79	0
1.8	0
1.81	0
1.82	0
1.83	0
1.84	0
1.85	0
1.86	0
1.87	0
1.88	0
1.89	0
1.9	0
1.91	0
1.92	0
1.93	0
1.94	0
1.95	0
1.96	0
1.97	0
1.98	0
1.99	0
2	-0.00482259
2.01	0.10202
2.02	0.333951
2.03	0.406168
2.04	0.359944
2.05	0.362469
2.06	0.330624
2.07	0.365647
2.08	0.383279
2.09	0.373743
2.1	0.410226
2.11	0.403596
2.12	0.437402
2.13	0.422464
2.14	0.381329
2.15	0.383413
2.16	0.319856
2.17	0.315227
2.18	0.292384
2.19	0.25749
2.2	0.276457
2.21	0.246378
2.22	0.264165
2.23	0.246447
2.24	0.233368
2.25	0.364364
2.26	0.597293
2.27	0.732619
2.28	0.569888
2.29	0.275161
2.3	0.155758
2.31	0.100766
2.32	0.130216
2.33	0.150258
2.34	0.119933
2.35	0.148923
2.36	0.108417
2.37	0.109356
2.38	0.114936
2.39	0.069484
2.4	0.0839251
2.41	0.0473673
2.42	0.0643349
2.43	0.0697336
2.44	0.046155
2.45	0.0990479
2.46	0.0825983
2.47	0.0985545
2.48	0.1127
2.49	0.10178
2.5	0.145275
2.51	0.113944
2.52	0.130983
2.53	0.141702
2.54	0.113398
2.55	0.129397
2.56	0.0728255
2.57	0.0755554
2.58	0.0632345
2.59	0.0207145
2.6	0.0418859
2.61	0.000114546
2.62	0.0173352
2.63	0.0201551
2.64	-4.29747e-05
2.65	0.0500233
2.66	0.0356053
2.67	0.0680278
2.68	0.0751228
2.69	0.0566218
2.7	0.106205
2.71	0.080478
2.72	0.0999109
2.73	0.122685
2.74	0.110214
2.75	0.136196
2.76	0.092235
2.77	0.100358
2.78	0.10028
2.79	0.080902
2.8	0.110776
2.81	0.0874636
2.82	0.119022
2.83	0.121529
2.84	0.113609
2.85	0.165228
2.86	0.142306
2.87	0.155301
2.88	0.138116
2.89	0.0895287
2.9	0.0826737
2.91	0.0164723
2.92	0.0161263
2.93	0.00717236
2.94	-0.0240261
2.95	-0.00603182
2.96	-0.0448118
2.97	-0.0326728
2.98	-0.0143126
2.99	0.0701242
3	0.304939
3.01	0.403118
3.02	0.299077
3.03	0.0510223
3.04	-0.116288
3.05	-0.103652
3.06	-0.102792
3.07	-0.0532164
3.08	-0.0490579
3.09	-0.0686532
3.1	-0.0239177
3.11	0.0159879
3.12	0.0354033
3.13	0.00933605
3.14	-0.0462322
3.15	-0.0172212
3.16	-0.0443203
3.17	-0.0205324
3.18	0.00341134
3.19	-0.00472323
3.2	0.0449137
3.21	0.0259683
3.22	0.0534632
3.23	0.0735394
3.24	0.0585624
3.25	0.111724
3.26	0.0920226
3.27	0.104352
3.28	0.1058
3.29	0.0726248
3.3	0.0835513
3.31	0.026616
3.32	0.0192039
3.33	-0.000659158
3.34	-0.0354222
3.35	-0.00168314
3.36	-0.032929
3.37	-0.027282
3.38	-0.0277023
3.39	-0.0424761
3.4	-0.00345809
3.41	-0.0349415
3.42	-0.0247005
3.43	-0.0117081
3.44	-0.0149619
3.45	0.018436
3.46	-0.0174464
3.47	0.00975474
3.48	0.0169384
3.49	-0.00267251
3.5	0.026702
3.51	-0.00655833
3.52	0.0145141
3.53	0.0232446
3.54	0.0043461
3.55	0.0274216
3.56	-0.00480835
3.57	0.0359054
3.58	0.0554522
3.59	0.0614369
3.6	0.123628
3.61	0.101833
3.62	0.116288
3.63	0.0980898
3.64	0.0508929
3.65	0.0532834
3.66	-0.000624651
3.67	-0.0056319
3.68	-0.0153318
3.69	-0.0302879
3.7	-0.0020413
3.71	-0.0544823
3.72	-0.109653
3.73	-0.0780807
3.74	0.00716725
3.75	0.237104
3.76	0.395908
3.77	0.363904
3.78	0.140605
3.79	-0.0805161
3.8	-0.108563
3.81	-0.109866
3.82	-0.0582514
3.83	-0.0378003
3.84	-0.0755652
3.85	-0.0419322
3.86	-0.0724137
3.87	-0.0627291
3.88	-0.0556089
3.89	-0.081825
3.9	-0.0472574
3.91	-0.0789343
3.92	-0.063619
3.93	-0.0519606
3.94	-0.0678579
3.95	-0.0225099
3.96	-0.0360597
3.97	0.00412729
3.98	0.0293089
3.99	0.021891
4	0.0728253
4.01	0.0486162
4.02	0.067737
4.03	0.0771771
4.04	0.0440087
4.05	0.0569431
4.06	0.00470145
4.07	0.000853304
4.08	-0.00648212
4.09	-0.0402867
4.1	-0.0169528
4.11	-0.0530842
4.12	-0.0313163
4.13	-0.0180464
4.14	-0.032409
4.15	0.00620041
4.16	-0.0238843
4.17	0.00448781
4.18	0.0243301
4.19	0.0121008
4.2	0.041174
4.21	0.00534868
4.22	0.0262564
4.23	0.0342692
4.24	0.0192429
4.25	0.0519154
4.26	0.0101743
4.27	0.0192797
4.28	0.0262724
4.29	0.0116121
4.3	0.035981
4.31	-0.00475386
4.32	0.0112771
4.33	0.0136431
4.34	-0.000796257
4.35	0.0379557
4.36	0.0247155
4.37	0.064655
4.38	0.0749038
4.39	0.0534929
4.4	0.0789726
4.41	0.0333767
4.42	0.0260439
4.43	-0.0163215
4.44	-0.0726972
4.45	-0.0598476
4.46	-0.0930682
4.47	-0.0746603
4.48	-0.0887842
4.49	-0.116084
4.5	-0.0938424
4.51	-0.117963
4.52	-0.0135085
4.53	0.160261
4.54	0.303456
4.55	0.281445
4.56	0.0865592
4.57	-0.0793248
4.58	-0.151013
4.59	-0.168493
4.6	-0.108625
4.61	-0.12644
4.62	-0.107829
4.63	-0.0919608
4.64	-0.109318
4.65	-0.0684359
4.66	-0.0935296
4.67	-0.0717806
4.68	-0.0658496
4.69	-0.0902764
4.7	-0.0417532
4.71	-0.0563788
4.72	-0.0310665
4.73	-0.0175263
4.74	-0.0269009
4.75	0.0344906
4.76	0.0286374
4.77	0.0658789
4.78	0.100161
4.79	0.0919542
4.8	0.128158
4.81	0.0864615
4.82	0.0804464
4.83	0.0540089
4.84	0.0106083
4.85	0.0320298
4.86	-0.00725368
4.87	0.00411101
4.88	-0.00118489
4.89	-0.0319734
4.9	-0.00380057
4.91	-0.043333
4.92	-0.0269079
4.93	-0.0116854
4.94	-0.0221737
4.95	0.0207845
4.96	-0.00929358
4.97	0.00203139
4.98	-0.00246011
4.99	-0.021767
5	0.013853
5.01	-0.0214387
5.02	-0.0107045
5.03	-0.000405576
5.04	-0.0144152
5.05	0.0170519
5.06	-0.0185031
5.07	-0.00734593
5.08	-0.0141557
5.09	-0.0422113
5.1	-0.0149017
5.11	-0.0385606
5.12	-0.0115821
5.13	-0.0175672
5.14	-0.0473774
5.15	-0.0172663
5.16	-0.0370173
5.17	-0.000842335
5.18	0.0105262
5.19	0.00355688
5.2	0.0538161
5.21	0.032124
5.22	0.0453964
5.23	0.0170677
5.24	-0.0399887
5.25	-0.0455606
5.26	-0.0975746
5.27	-0.0850656
5.28	-0.0998345
5.29	-0.128103
5.3	-0.0955065
5.31	-0.129414
5.32	-0.0983741
5.33	-0.0468958
5.34	0.0865706
5.35	0.320109
5.36	0.307083
5.37	0.127954
5.38	-0.0852386
5.39	-0.177343
5.4	-0.129126
5.41	-0.065696
5.42	-0.0300743
5.43	-0.0445607
5.44	-0.084988
5.45	-0.0457628
5.46	-0.077912
5.47	-0.0640145
5.48	-0.0534086
5.49	-0.0723478
5.5	-0.0389607
5.51	-0.0603288
5.52	-0.028898
5.53	-0.00740481
5.54	-0.00936358
5.55	0.0392601
5.56	0.0188691
5.57	0.0596945
5.58	0.0919274
5.59	0.0927254
5.6	0.146252
5.61	0.12164
5.62	0.136759
5.63	0.13011
5.64	0.0909882
5.65	0.0937946
5.66	0.0367049
5.67	0.0395934
5.68	0.0292311
5.69	-0.00467723
5.7	0.0234619
5.71	-0.00468998
5.72	0.0125993
5.73	0.00877301
5.74	-0.0178721
5.75	0.0191861
5.76	-0.00548584
5.77	0.0213419
5.78	0.0246145
5.79	0.0029216
5.8	0.0360381
5.81	0.00436607
5.82	0.0155013
5.83	0.00678494
5.84	-0.0184774
5.85	0.0110045
5.86	-0.0327657
5.87	-0.0228347
5.88	-0.0239908
5.89	-0.0443406
5.9	-0.00835487
5.91	-0.0436073
5.92	-0.0376075
5.93	-0.053597
5.94	-0.0750781
5.95	-0.0361839
5.96	-0.0549228
5.97	-0.0244989
5.98	-0.0161549
5.99	-0.0225429
6	0.0201814
6.01	-0.0169212
6.02	-0.0152432
6.03	-0.0419457
6.04	-0.0865671
6.05	-0.084013
6.06	-0.133634
6.07	-0.111697
6.08	-0.119178
6.09	-0.13746
6.1	-0.0940392
6.11	-0.126486
6.12	-0.100817
6.13	-0.0396961
6.14	0.129298
6.15	0.374604
6.16	0.329606
6.17	0.110925
6.18	-0.108359
6.19	-0.174123
6.2	-0.106148
6.21	-0.0974514
6.22	-0.0513104
6.23	-0.0490386
6.24	-0.0528852
6.25	-0.0115423
6.26	0.0250488
6.27	0.0492464
6.28	0.0242039
6.29	-0.0234016
6.3	0.000378266
6.31	-0.0281832
6.32	-0.00211963
6.33	0.0160687
6.34	0.00464417
6.35	0.0515378
6.36	0.0365749
6.37	0.0806828
6.38	0.116553
6.39	0.110599
6.4	0.145747
6.41	0.110911
6.42	0.119006
6.43	0.106606
6.44	0.0680072
6.45	0.0762146
6.46	0.0122305
6.47	0.00677212
6.48	-0.00656127
6.49	-0.029614
6.5	0.00650264
6.51	-0.0244737
6.52	-0.0152537
6.53	-0.0269261
6.54	-0.0476032
6.55	-0.00685756
6.56	-0.0330892
6.57	-0.0105343
6.58	-0.00796158
6.59	-0.029487
6.6	0.00183427
6.61	-0.0320349
6.62	-0.0136727
6.63	-0.0181136
6.64	-0.0494275
6.65	-0.02945
6.66	-0.0620509
6.67	-0.0388599
6.68	-0.0356941
6.69	-0.0540802
6.7	-0.0258765
6.71	-0.0574094
6.72	-0.0338819
6.73	-0.0406638
6.74	-0.0628441
6.75	-0.0259719
6.76	-0.0401658
6.77	0.0035517
6.78	0.0209214
6.79	0.0076999
6.8	0.0378783
6.81	0.000376172
6.82	0.0019501
6.83	-0.034968
6.84	-0.0847317
6.85	-0.0603433
6.86	-0.0937661
6.87	-0.0766703
6.88	-0.0787406
6.89	-0.0919241
6.9	-0.0701594
6.91	-0.0977579
6.92	0.0217082
6.93	0.235999
6.94	0.419423
6.95	0.375742
6.96	0.0769454
6.97	-0.0848792
6.98	-0.120522
6.99	-0.096705
7	-0.0370533
7.01	-0.0521789
7.02	-0.0128657
7.03	-0.0141385
7.04	-0.0340042
7.05	-0.00410725
7.06	-0.0348231
7.07	-0.00496336
7.08	-0.00694159
7.09	-0.0107834
7.1	0.0316471
7.11	-0.00218625
7.12	-0.0186437
7.13	0.012186
7.14	0.0277069
7.15	0.0911878
7.16	0.0868971
7.17	0.12845
7.18	0.143889
7.19	0.122117
7.2	0.157016
7.21	0.119605
7.22	0.11112
7.23	0.0827863
7.24	0.0338622
7.25	0.0447939
7.26	-0.00345835
7.27	-0.000882294
7.28	-0.0111236
7.29	-0.0419304
7.3	-0.0107972
7.31	-0.0454598
7.32	-0.0305567
7.33	-0.0362036
7.34	-0.0623401
7.35	-0.0251891
7.36	-0.0508193
7.37	-0.0299619
7.38	-0.024827
7.39	-0.0411291
7.4	-0.00198292
7.41	-0.0337343
7.42	-0.0184201
7.43	-0.0274333
7.44	-0.0540622
7.45	-0.0120412
7.46	-0.038522
7.47	-0.0234611
7.48	-0.0327711
7.49	-0.0571772
7.5	-0.0283476
7.51	-0.0646725
7.52	-0.0480776
7.53	-0.0548224
7.54	-0.0532612
7.55	0.00584232
7.56	-0.0152801
7.57	0.0159689
7.58	0.0283181
7.59	0.0149883
7.6	0.0373652
7.61	-0.00379671
7.62	0.00150753
7.63	-0.0291031
7.64	-0.0704831
7.65	-0.0478892
7.66	-0.0817067
7.67	-0.0610858
7.68	-0.0661779
7.69	-0.0843205
7.7	-0.0578863
7.71	-0.0394615
7.72	0.139706
7.73	0.36093
7.74	0.40989
7.75	0.245272
7.76	-0.0333572
7.77	-0.120316
7.78	-0.117677
7.79	-0.0915165
7.8	-0.0288749
7.81	-0.0394881
7.82	-0.00564825
7.83	-0.0120212
7.84	-0.0250109
7.85	0.000128601
7.86	-0.0352519
7.87	-0.00158548
7.88	0.00396992
7.89	0.00179318
7.9	0.0378779
7.91	0.0123212
7.92	0.0524396
7.93	0.0563768
7.94	0.0544961
7.95	0.0992191
7.96	0.0826373
7.97	0.131865
7.98	0.141692
7.99	0.130752
8	0.156302
8.01	0.103545
8.02	0.0478852
8.03	0.0237988
8.04	-0.00629191
8.05	0.0123361
8.06	-0.0409446
8.07	-0.0381825
8.08	-0.0408231
8.09	-0.0609094
8.1	-0.0289344
8.11	-0.0697146
8.12	-0.0481121
8.13	-0.0334114
8.14	-0.0586551
8.15	-0.0282286
8.16	-0.0550299
8.17	-0.0329292
8.18	-0.0301627
8.19	-0.0476288
8.2	-0.0133777
8.21	-0.0477536
8.22	-0.0344121
8.23	-0.0404496
8.24	-0.0672125
8.25	-0.0395676
8.26	-0.0756823
8.27	-0.0593234
8.28	-0.0627672
8.29	-0.0832782
8.3	-0.0419198
8.31	-0.0685554
8.32	-0.0448777
8.33	-0.0488543
8.34	-0.0715199
8.35	-0.0197251
8.36	-0.0252802
8.37	0.0107734
8.38	0.0248479
8.39	0.018504
8.4	0.0452854
8.41	0.00366074
8.42	0.0134219
8.43	-0.00516119
8.44	-0.0415284
8.45	-0.0288659
8.46	-0.0759659
8.47	-0.0637298
8.48	-0.072617
8.49	-0.0871312
8.5	-0.0489262
8.51	-0.0791208
8.52	-0.0151801
8.53	0.11885
8.54	0.324867
8.55	0.454971
8.56	0.248052
8.57	0.0154004
8.58	-0.11819
8.59	-0.141117
8.6	-0.0734041
8.61	-0.0733782
8.62	-0.0254034
8.63	-0.0259591
8.64	-0.0466619
8.65	-0.0216234
8.66	-0.0587808
8.67	-0.0317326
8.68	-0.0318524
8.69	-0.0462083
8.7	-0.0120599
8.71	-0.0379237
8.72	-0.00916252
8.73	-0.00731285
8.74	-0.0106228
8.75	0.0330524
8.76	0.0228076
8.77	0.0709237
8.78	0.0789426
8.79	0.0725392
8.8	0.102151
8.81	0.0669234
8.82	0.0894436
8.83	0.0625917
8.84	0.0213453
8.85	0.0165714
8.86	-0.0463163
8.87	-0.0359605
8.88	-0.0584166
8.89	-0.0841243
8.9	-0.0657973
8.91	-0.0975709
8.92	-0.0432983
8.93	0.0133012
8.94	-0.02027
8.95	-0.0125714
8.96	-0.0551658
8.97	-0.0307361
8.98	-0.0256038
8.99	-0.0445403
9	-0.0141488
9.01	-0.0463875
9.02	-0.025132
9.03	-0.020178
9.04	-0.0440118
9.05	-0.0215998
9.06	-0.0568686
9.07	-0.0347223
9.08	-0.0356709
9.09	-0.0504942
9.1	-0.00729916
9.11	-0.0345093
9.12	-0.0177342
9.13	-0.0249606
9.14	-0.0451349
9.15	-0.00895298
9.16	-0.029578
9.17	0.0120167
9.18	0.0221547
9.19	0.0160046
9.2	0.0772655
9.21	0.0682083
9.22	0.0809976
9.23	0.053892
9.24	0.00837933
9.25	0.014582
9.26	-0.0367904
9.27	-0.030072
9.28	-0.0421182
9.29	-0.0598679
9.3	-0.0255133
9.31	-0.0661095
9.32	-0.0577705
9.33	-0.0415782
9.34	0.0498351
9.35	0.291165
9.36	0.396112
9.37	0.300115
9.38	0.050388
9.39	-0.115674
9.4	-0.0960554
9.41	-0.0898738
9.42	-0.0365601
9.43	-0.0331543
9.44	-0.0491113
9.45	-0.0219631
9.46	-0.0527891
9.47	-0.0204508
9.48	-0.0256047
9.49	-0.0460764
9.5	-0.0183787
9.51	-0.0473181
9.52	-0.0169125
9.53	-0.0173484
9.54	-0.0215063
9.55	0.0226644
9.56	0.0105082
9.57	0.0538172
9.58	0.0567506
9.59	0.0643434
9.6	0.11743
9.61	0.0933769
9.62	0.110329
9.63	0.0986305
9.64	0.0778952
9.65	0.0738094
9.66	0.00403137
9.67	0.0083984
9.68	-0.0207984
9.69	-0.045139
9.7	-0.0328021
9.71	-0.0680332
9.72	-0.033385
9.73	-0.0440473
9.74	-0.0579101
9.75	-0.0354851
9.76	-0.075809
9.77	-0.0961407
9.78	-0.0726458
9.79	-0.0616782
9.8	-0.0170131
9.81	-0.0418113
9.82	-0.0125496
9.83	-0.0082938
9.84	-0.0369635
9.85	-0.0150656
9.86	-0.0514666
9.87	-0.0283005
9.88	-0.0267788
9.89	-0.0474189
9.9	-0.0208456
9.91	-0.0572441
9.92	-0.0317762
9.93	-0.0324483
9.94	-0.0531296
9.95	-0.0258323
9.96	-0.0618911
9.97	-0.043574
9.98	-0.0423168
9.99	-0.055562
10	0.00161972
10.01	-0.00515844
10.02	0.0333576
10.03	0.0447681
10.04	0.0267608
10.05	0.0576742
10.06	0.00916762
10.07	0.00678415
10.08	-0.0231034
10.09	-0.0614984
10.1	-0.0436437
10.11	-0.0881398
10.12	-0.0702615
10.13	-0.0795742
10.14	-0.104015
10.15	-0.0762386
10.16	-0.0877881
10.17	0.0415124
10.18	0.247465
10.19	0.369952
10.2	0.270336
10.21	-0.0153653
10.22	-0.135574
10.23	-0.145061
10.24	-0.113998
10.25	-0.0520384
10.26	-0.0778655
10.27	-0.054484
10.28	-0.0498381
10.29	-0.0570167
10.3	-0.0218917
10.31	-0.0526516
10.32	-0.0331531
10.33	-0.0419953
10.34	-0.0451799
10.35	-0.0115262
10.36	-0.0402069
10.37	0.00433466
10.38	0.0123357
10.39	0.0175136
10.4	0.0679618
10.41	0.0491022
10.42	0.0935641
10.43	0.103856
10.44	0.109669
10.45	0.141998
10.46	0.0978959
10.47	0.108822
10.48	0.0825363
10.49	0.04487
10.5	0.035745
10.51	-0.0197716
10.52	-0.00094327
10.53	-0.0175218
10.54	-0.0342014
10.55	-0.0101752
10.56	-0.045308
10.57	-0.0233832
10.58	-0.0343442
10.59	-0.0354684
10.6	0.000491446
10.61	-0.0263859
10.62	-0.0543697
10.63	-0.0473498
10.64	-0.0347198
10.65	0.00986536
10.66	-0.0291528
10.67	-0.0157561
10.68	-0.0136655
10.69	-0.0326918
10.7	-0.00425536
10.71	-0.0377302
10.72	-0.0178957
10.73	-0.0213406
10.74	-0.0419486
10.75	-0.0183835
10.76	-0.0574417
10.77	-0.0318042
10.78	-0.0387731
10.79	-0.066032
10.8	-0.0220851
10.81	-0.0342552
10.82	0.00951084
10.83	0.0179135
10.84	0.00544113
10.85	0.0430133
10.86	0.014346
10.87	0.0372769
10.88	0.0153814
10.89	-0.0279834
10.9	-0.0191273
10.91	-0.0650769
10.92	-0.0585841
10.93	-0.0706446
10.94	-0.0872128
10.95	-0.0581714
10.96	-0.0935038
10.97	-0.0717482
10.98	-0.053125
10.99	0.0301021
11	0.267353
11.01	0.381685
11.02	0.296136
11.03	0.0484721
11.04	-0.125433
11.05	-0.11898
11.06	-0.113821
11.07	-0.0560467
11.08	-0.0465272
11.09	-0.0586338
11.1	-0.028392
11.11	-0.0484764
11.12	-0.0144163
11.13	-0.0216777
11.14	-0.0413033
11.15	-0.0169549
11.16	-0.0522323
11.17	-0.0169351
11.18	-0.00792928
11.19	-0.00933691
11.2	0.0346969
11.21	0.0150178
11.22	0.0604885
11.23	0.0720356
11.24	0.0724
11.25	0.114611
11.26	0.0991292
11.27	0.13258
11.28	0.115933
11.29	0.0865628
11.3	0.0850081
11.31	0.0193253
11.32	0.0270701
11.33	0.00213749
11.34	-0.0208306
11.35	-0.00362435
11.36	-0.0429957
11.37	-0.0172723
11.38	-0.0310124
11.39	-0.0504901
11.4	-0.0204734
11.41	-0.0435372
11.42	-0.0132739
11.43	-0.0276958
11.44	-0.0425245
11.45	-0.0109655
11.46	-0.0448796
11.47	-0.0879906
11.48	-0.0817607
11.49	-0.0639277
11.5	-0.0144453
11.51	-0.0458318
11.52	-0.0283763
11.53	-0.0331248
11.54	-0.0504991
11.55	-0.0179305
11.56	-0.0523136
11.57	-0.0356962
11.58	-0.0467631
11.59	-0.0681636
11.6	-0.026898
11.61	-0.0543246
11.62	-0.0328644
11.63	-0.0263671
11.64	-0.0267414
11.65	0.0184372
11.66	-0.00429666
11.67	0.0330862
11.68	0.0453615
11.69	0.0198755
11.7	0.0266331
11.71	-0.0327089
11.72	-0.0356981
11.73	-0.0525197
11.74	-0.0805959
11.75	-0.0673168
11.76	-0.0965009
11.77	-0.0605472
11.78	-0.0603543
11.79	-0.0896061
11.8	-0.035842
11.81	0.0493089
11.82	0.303916
11.83	0.444922
11.84	0.285203
11.85	0.0512626
11.86	-0.127496
11.87	-0.104781
11.88	-0.0664447
11.89	-0.0515667
11.9	-0.0129928
11.91	-0.0462318
11.92	-0.0167314
11.93	-0.0203955
11.94	-0.0363193
11.95	-0.00510772
11.96	-0.0310864
11.97	0.00210905
11.98	-0.00355624
11.99	-0.0160187
12	0.016696
12.01	0.00340038
12.02	0.0483053
12.03	0.0570805
12.04	0.0652238
12.05	0.118793
12.06	0.107033
12.07	0.148062
12.08	0.144715
12.09	0.124299
12.1	0.141682
12.11	0.0940608
12.12	0.0955418
12.13	0.0536335
12.14	0.0128974
12.15	0.0214194
12.16	-0.0280457
12.17	-0.0105011
12.18	-0.0268494
12.19	-0.0372271
12.2	-0.00716215
12.21	-0.0394442
12.22	-0.0135504
12.23	-0.0274345
12.24	-0.0333971
12.25	0.00199374
12.26	-0.0338457
12.27	-0.0116636
12.28	-0.0196675
12.29	-0.022873
12.3	0.000794587
12.31	-0.039943
12.32	-0.0732274
12.33	-0.0730226
12.34	-0.0632725
12.35	-0.0174799
12.36	-0.0576291
12.37	-0.0395981
12.38	-0.0330329
12.39	-0.0541835
12.4	-0.0283196
12.41	-0.0621781
12.42	-0.0370345
12.43	-0.0358284
12.44	-0.0584189
12.45	-0.0325762
12.46	-0.0648254
12.47	-0.0361527
12.48	-0.0248448
12.49	-0.0173649
12.5	0.029705
12.51	0.0184896
12.52	0.0567763
12.53	0.0413918
12.54	0.00608066
12.55	0.0224565
12.56	-0.0332325
12.57	-0.0377562
12.58	-0.0688758
12.59	-0.0917423
12.6	-0.0577527
12.61	-0.0960627
12.62	-0.0765955
12.63	-0.0784765
12.64	-0.0895183
12.65	-0.0197584
12.66	0.0841622
12.67	0.329947
12.68	0.411373
12.69	0.220318
12.7	0.0037068
12.71	-0.142744
12.72	-0.10259
12.73	-0.0655622
12.74	-0.0550028
12.75	-0.0221503
12.76	-0.0570146
12.77	-0.0282012
12.78	-0.0399467
12.79	-0.050878
12.8	-0.0142162
12.81	-0.0473213
12.82	-0.0219032
12.83	-0.0307292
12.84	-0.0427844
12.85	-0.00811993
12.86	-0.0255853
12.87	0.0225408
12.88	0.0349603
12.89	0.0439623
12.9	0.087801
12.91	0.0687679
12.92	0.107156
12.93	0.11036
12.94	0.101895
12.95	0.109612
12.96	0.0496297
12.97	0.0548918
12.98	0.0107344
12.99	-0.0354766
13	-0.0200875
13.01	-0.0560488
13.02	-0.0313723
13.03	-0.0521957
13.04	-0.0723315
13.05	-0.0403695
13.06	-0.068793
13.07	-0.0351546
13.08	-0.0379896
13.09	-0.050193
13.1	-0.0308649
13.11	-0.0595092
13.12	-0.0201373
13.13	-0.0302303
13.14	-0.0395697
13.15	-0.0185743
13.16	-0.0647606
13.17	-0.088649
13.18	-0.0841674
13.19	-0.0721514
13.2	-0.0228648
13.21	-0.0578462
13.22	-0.0394883
13.23	-0.0443399
13.24	-0.070392
13.25	-0.0414201
13.26	-0.0722732
13.27	-0.0498002
13.28	-0.0575212
13.29	-0.0734687
13.3	-0.0362098
13.31	-0.0711004
13.32	-0.04892
13.33	-0.0530968
13.34	-0.0640115
13.35	-0.016604
13.36	-0.0346853
13.37	0.00262336
13.38	0.0134981
13.39	0.00765383
13.4	0.0407325
13.41	0.0030465
13.42	0.0105469
13.43	-0.0176291
13.44	-0.0555591
13.45	-0.0479245
13.46	-0.103262
13.47	-0.0844598
13.48	-0.0869371
13.49	-0.09662
13.5	-0.0631176
13.51	-0.0984395
13.52	-0.0472721
13.53	0.0521789
13.54	0.251033
13.55	0.428341
13.56	0.278097
13.57	0.0441309
13.58	-0.128871
13.59	-0.15684
13.6	-0.0825241
13.61	-0.0797309
13.62	-0.0327583
13.63	-0.0362407
13.64	-0.0533135
13.65	-0.021812
13.66	-0.050726
13.67	-0.0268879
13.68	-0.0374093
13.69	-0.0405214
13.7	-0.00492647
13.71	-0.0321836
13.72	0.00334455
13.73	0.00140507
13.74	0.00451439
13.75	0.0485098
13.76	0.0321727
13.77	0.0772996
13.78	0.0854619
13.79	0.0942403
13.8	0.126659
13.81	0.0948105
13.82	0.123045
13.83	0.0985589
13.84	0.0589625
13.85	0.053912
13.86	-0.00348842
13.87	0.00364476
13.88	-0.022269
13.89	-0.0401625
13.9	-0.0223442
13.91	-0.0546213
13.92	-0.0192773
13.93	-0.030178
13.94	-0.0329638
13.95	-0.00366934
13.96	-0.0343291
13.97	9.93143e-05
13.98	-0.0089214
13.99	-0.01881
14	0.00677374
14.01	0.0201301
14.02	0.0455917
14.03	0.0172697
14.04	-0.0282169
14.05	-0.00763581
14.06	-0.0421084
14.07	-0.0204336
14.08	-0.0319837
14.09	-0.0529714
14.1	-0.0137395
14.11	-0.0445577
14.12	-0.0270739
14.13	-0.030582
14.14	-0.0405206
14.15	-0.0111957
14.16	-0.0491598
14.17	-0.0231298
14.18	-0.0284539
14.19	-0.0497132
14.2	-0.020468
14.21	-0.0595159
14.22	-0.0428399
14.23	-0.042468
14.24	-0.0417319
14.25	0.010437
14.26	-0.0100959
14.27	0.0248101
14.28	0.0323025
14.29	0.0225687
14.3	0.0487317
14.31	-0.00207741
14.32	-0.000304949
14.33	-0.0385936
14.34	-0.0769089
14.35	-0.0602256
14.36	-0.101868
14.37	-0.0804342
14.38	-0.0818725
14.39	-0.0908707
14.4	-0.064686
14.41	-0.102197
14.42	-0.0352373
14.43	0.0996772
14.44	0.303268
14.45	0.400332
14.46	0.183546
14.47	-0.0150868
14.48	-0.128761
14.49	-0.133999
14.5	-0.0753693
14.51	-0.0859624
14.52	-0.0363822
14.53	-0.0392672
14.54	-0.0506681
14.55	-0.0192609
14.56	-0.0468987
14.57	-0.0163494
14.58	-0.0315417
14.59	-0.0324131
14.6	0.00888288
14.61	-0.0204922
14.62	0.00803094
14.63	0.00582915
14.64	0.0192218
14.65	0.0574028
14.66	0.0370219
14.67	0.0901809
14.68	0.0891135
14.69	0.0985939
14.7	0.141466
14.71	0.108989
14.72	0.122246
14.73	0.0920068
14.74	0.0552924
14.75	0.0422661
14.76	-0.020406
14.77	-0.000955423
14.78	-0.0133269
14.79	-0.0290349
14.8	-0.0204884
14.81	-0.0557174
14.82	-0.0317481
14.83	-0.0422116
14.84	-0.0389152
14.85	-0.011956
14.86	-0.00266725
14.87	0.0224393
14.88	-0.00467631
14.89	-0.0373518
14.9	-0.0092495
14.91	-0.0418843
14.92	-0.0190368
14.93	-0.0220602
14.94	-0.040276
14.95	-0.0165492
14.96	-0.0503473
14.97	-0.0291391
14.98	-0.0411581
14.99	-0.0534533
15	-0.0251476
15.01	-0.0634435
15.02	-0.037999
15.03	-0.0489893
15.04	-0.0656386
15.05	-0.0342632
15.06	-0.0709908
15.07	-0.0446833
15.08	-0.0448551
15.09	-0.0552808
15.1	-0.0334327
15.11	-0.0764754
15.12	-0.0523145
15.13	-0.058647
15.14	-0.065224
15.15	-0.0238677
15.16	-0.0369894
15.17	0.00673471
15.18	0.0141239
15.19	0.0147891
15.2	0.0506592
15.21	0.00797907
15.22	0.0113778
15.23	-0.0154242
15.24	-0.0458685
15.25	-0.0448115
15.26	-0.101592
15.27	-0.0807752
15.28	-0.0908176
15.29	-0.0971579
15.3	-0.0685707
15.31	-0.0981989
15.32	-0.0547702
15.33	0.0255406
15.34	0.206353
15.35	0.387972
15.36	0.264222
15.37	0.0478369
15.38	-0.129373
15.39	-0.164344
15.4	-0.10076
15.41	-0.105488
15.42	-0.0648769
15.43	-0.07017
15.44	-0.0808031
15.45	-0.0605216
15.46	-0.09237
15.47	-0.0598397
15.48	-0.0610579
15.49	-0.065416
15.5	-0.0436867
15.51	-0.0799055
15.52	-0.0475337
15.53	-0.0572869
15.54	-0.0563745
15.55	-0.0211655
15.56	-0.037508
15.57	0.0120697
15.58	0.0174071
15.59	0.0252429
15.6	0.0516789
15.61	0.0149459
15.62	0.04491
15.63	0.0201913
15.64	-0.0121255
15.65	-0.0192409
15.66	-0.0849113
15.67	-0.086503
15.68	-0.123379
15.69	-0.139789
15.7	-0.155859
15.71	-0.192602
15.72	-0.149769
15.73	-0.144199
15.74	-0.161568
15.75	-0.133927
15.76	-0.166277
15.77	-0.131519
15.78	-0.131392
15.79	-0.151005
15.8	-0.126305
15.81	-0.164808
15.82	-0.142646
15.83	-0.148176
15.84	-0.16657
15.85	-0.133796
15.86	-0.155682
15.87	-0.124191
15.88	-0.125044
15.89	-0.128479
15.9	-0.088295
15.91	-0.110797
15.92	-0.0779387
15.93	-0.0707359
15.94	-0.0671094
15.95	-0.0324218
15.96	-0.0696581
15.97	-0.0444899
15.98	-0.0460122
15.99	-0.0484926
16	-0.0156209
16.01	-0.0494828
16.02	-0.0145699
16.03	-0.0168635
16.04	-0.0313849
16.05	0.00311704
16.06	-0.0118275
16.07	0.0344494
16.08	0.0400759
16.09	0.0432436
16.1	0.0909816
16.11	0.0721658
16.12	0.0866943
16.13	0.0531169
16.14	0.0155754
16.15	0.0165272
16.16	-0.031235
16.17	-0.0174308
16.18	-0.0370472
16.19	-0.0431653
16.2	-0.0189775
16.21	-0.0574245
16.22	-0.0328993
16.23	-0.0184193
16.24	0.0865233
16.25	0.323399
16.26	0.413891
16.27	0.310392
16.28	0.0535893
16.29	-0.0984722
16.3	-0.0842918
16.31	-0.0797858
16.32	-0.0164398
16.33	-0.0218015
16.34	-0.032675
16.35	-0.010445
16.36	-0.043406
16.37	-0.00389818
16.38	-0.00890835
16.39	-0.0109725
16.4	0.014014
16.41	-0.0201681
16.42	0.0105456
16.43	0.0041636
16.44	0.00412852
16.45	0.0419113
16.46	0.0197385
16.47	0.0643965
16.48	0.0737487
16.49	0.0908647
16.5	0.127537
16.51	0.101478
16.52	0.142152
16.53	0.122971
16.54	0.0988029
16.55	0.0984284
16.56	0.0917368
16.57	0.0970569
16.58	0.0377985
16.59	-0.0179545
16.6	-0.00256926
16.61	-0.0382812
16.62	-0.0149782
16.63	-0.0153905
16.64	-0.0297036
16.65	-0.00103653
16.66	-0.0323598
16.67	8.00045e-05
16.68	-0.00748585
16.69	-0.0224462
16.7	0.0129275
16.71	-0.0118206
16.72	0.019434
16.73	0.0111726
16.74	-0.00729489
16.75	0.0233801
16.76	-0.0124119
16.77	0.0116966
16.78	0.00693363
16.79	-0.000460837
16.8	0.0246331
16.81	-0.00601502
16.82	0.0295885
16.83	0.0216247
16.84	0.0094197
16.85	0.0388973
16.86	0.00541732
16.87	0.0403683
16.88	0.0367931
16.89	0.0235754
16.9	0.0519214
16.91	0.0291246
16.92	0.0697169
16.93	0.0689763
16.94	0.0646978
16.95	0.110491
16.96	0.0965355
16.97	0.131654
16.98	0.107814
16.99	0.0725491
17	0.0694721
17.01	0.00498646
17.02	0.00651356
17.03	-0.0209866
17.04	-0.0437151
17.05	-0.0216387
17.06	-0.0510121
17.07	-0.0342139
17.08	-0.0602727
17.09	-0.0264548
17.1	0.138687
17.11	0.326097
17.12	0.435715
17.13	0.248743
17.14	-0.00588945
17.15	-0.113761
17.16	-0.154193
17.17	-0.0827605
17.18	-0.0725231
17.19	-0.0793328
17.2	-0.0585902
17.21	-0.0816725
17.22	-0.0492236
17.23	-0.0750319
17.24	-0.083721
17.25	-0.0521589
17.26	-0.0811753
17.27	-0.0549905
